 #written on  7Aug2021 at 23:11:10 
 #------------------------------------------------- MONTECARLO -------------------------------------------------#
 # Temp      Magnetization     Energy_ave          C_M              Sus              U_E              U_M       #
 #--------------------------------------------------------------------------------------------------------------#
   4.0000   0.17416883E-02  -0.17178889E+03   0.10129311E+01   0.39806546E-03   0.66666635E+00   0.37320291E+00
   5.0476   0.19688119E-02  -0.17072845E+03   0.10237966E+01   0.39193469E-03   0.66666615E+00   0.38105767E+00
   6.0952   0.21718725E-02  -0.16966637E+03   0.10124338E+01   0.38832929E-03   0.66666591E+00   0.38518580E+00
   7.1429   0.23615871E-02  -0.16859700E+03   0.10232294E+01   0.38667565E-03   0.66666560E+00   0.38885740E+00
   8.1905   0.25386960E-02  -0.16752718E+03   0.10206118E+01   0.38379979E-03   0.66666525E+00   0.39284187E+00
   9.2381   0.27021504E-02  -0.16645227E+03   0.10269052E+01   0.38042083E-03   0.66666484E+00   0.39714050E+00
  10.2857   0.28603895E-02  -0.16537252E+03   0.10375708E+01   0.37800308E-03   0.66666434E+00   0.40026901E+00
  11.3333   0.30182109E-02  -0.16428779E+03   0.10412751E+01   0.37504245E-03   0.66666380E+00   0.40556321E+00
  12.3810   0.31632417E-02  -0.16320014E+03   0.10378440E+01   0.37400604E-03   0.66666321E+00   0.40829209E+00
  13.4286   0.33065002E-02  -0.16210738E+03   0.10369396E+01   0.37222377E-03   0.66666255E+00   0.41118856E+00
  14.4762   0.34432889E-02  -0.16101341E+03   0.10524000E+01   0.37176581E-03   0.66666174E+00   0.41344597E+00
  15.5238   0.35777729E-02  -0.15990959E+03   0.10501304E+01   0.37083806E-03   0.66666094E+00   0.41601738E+00
  16.5714   0.37092933E-02  -0.15880398E+03   0.10603439E+01   0.36920684E-03   0.66665999E+00   0.41963906E+00
  17.6190   0.38390700E-02  -0.15769179E+03   0.10672485E+01   0.36882732E-03   0.66665896E+00   0.42201484E+00
  18.6667   0.39577728E-02  -0.15657550E+03   0.10700972E+01   0.36859695E-03   0.66665787E+00   0.42329111E+00
  19.7143   0.40803174E-02  -0.15545315E+03   0.10731622E+01   0.36774998E-03   0.66665668E+00   0.42578411E+00
  20.7619   0.42015375E-02  -0.15432201E+03   0.10797118E+01   0.36678607E-03   0.66665536E+00   0.42868808E+00
  21.8095   0.43148787E-02  -0.15318781E+03   0.10866255E+01   0.36695352E-03   0.66665392E+00   0.43012182E+00
  22.8571   0.44345900E-02  -0.15204641E+03   0.10922072E+01   0.36793655E-03   0.66665238E+00   0.43136405E+00
  23.9048   0.45418144E-02  -0.15090129E+03   0.11014199E+01   0.36819273E-03   0.66665067E+00   0.43194226E+00
  24.9524   0.46489499E-02  -0.14974574E+03   0.11036702E+01   0.36871227E-03   0.66664894E+00   0.43269652E+00
  26.0000   0.47579741E-02  -0.14858062E+03   0.11157804E+01   0.36821126E-03   0.66664690E+00   0.43449203E+00
  27.0476   0.48639905E-02  -0.14741055E+03   0.11226257E+01   0.36855052E-03   0.66664480E+00   0.43588626E+00
  28.0952   0.49693214E-02  -0.14623418E+03   0.11281085E+01   0.36963330E-03   0.66664257E+00   0.43658592E+00
  29.1429   0.50721640E-02  -0.14504631E+03   0.11373873E+01   0.37028124E-03   0.66664010E+00   0.43738915E+00
  30.1905   0.51773329E-02  -0.14384664E+03   0.11467462E+01   0.37127390E-03   0.66663744E+00   0.43837301E+00
  31.2381   0.52783511E-02  -0.14264104E+03   0.11556489E+01   0.37195999E-03   0.66663460E+00   0.43892708E+00
  32.2857   0.53775701E-02  -0.14142370E+03   0.11673054E+01   0.37244039E-03   0.66663147E+00   0.43993725E+00
  33.3333   0.54761690E-02  -0.14019040E+03   0.11827577E+01   0.37397033E-03   0.66662798E+00   0.44025180E+00
  34.3810   0.55685765E-02  -0.13894986E+03   0.11933912E+01   0.37462011E-03   0.66662440E+00   0.44044806E+00
  35.4286   0.56648986E-02  -0.13768822E+03   0.12102967E+01   0.37614439E-03   0.66662031E+00   0.44066697E+00
  36.4762   0.57619635E-02  -0.13641582E+03   0.12263240E+01   0.37686763E-03   0.66661594E+00   0.44142777E+00
  37.5238   0.58605203E-02  -0.13512221E+03   0.12429044E+01   0.37787590E-03   0.66661122E+00   0.44232195E+00
  38.5714   0.59526210E-02  -0.13381037E+03   0.12661479E+01   0.37905816E-03   0.66660581E+00   0.44266329E+00
  39.6190   0.60459367E-02  -0.13246606E+03   0.12955188E+01   0.38055878E-03   0.66659963E+00   0.44248781E+00
  40.6667   0.61376359E-02  -0.13110266E+03   0.13234456E+01   0.38197123E-03   0.66659301E+00   0.44278401E+00
  41.7143   0.62316664E-02  -0.12969703E+03   0.13546179E+01   0.38353785E-03   0.66658561E+00   0.44297799E+00
  42.7619   0.63259712E-02  -0.12825456E+03   0.14018990E+01   0.38463883E-03   0.66657653E+00   0.44349695E+00
  43.8095   0.64190275E-02  -0.12677715E+03   0.14336490E+01   0.38719069E-03   0.66656765E+00   0.44354143E+00
  44.8571   0.65112234E-02  -0.12525150E+03   0.14792235E+01   0.38879917E-03   0.66655694E+00   0.44360444E+00
  45.9048   0.66060158E-02  -0.12367781E+03   0.15209337E+01   0.39046878E-03   0.66654549E+00   0.44435531E+00
  46.9524   0.66981311E-02  -0.12205771E+03   0.15574874E+01   0.39206822E-03   0.66653338E+00   0.44443930E+00
  48.0000   0.67899089E-02  -0.12042428E+03   0.15820048E+01   0.39458313E-03   0.66652130E+00   0.44367497E+00
  49.0476   0.68848666E-02  -0.11876367E+03   0.15886836E+01   0.39670173E-03   0.66650994E+00   0.44453560E+00
  50.0952   0.69742958E-02  -0.11709418E+03   0.15850778E+01   0.39856175E-03   0.66649886E+00   0.44436601E+00
  51.1429   0.70665504E-02  -0.11545231E+03   0.15732691E+01   0.40086571E-03   0.66648810E+00   0.44418740E+00
  52.1905   0.71547732E-02  -0.11380607E+03   0.15579113E+01   0.40267718E-03   0.66647715E+00   0.44443366E+00
  53.2381   0.72428835E-02  -0.11218761E+03   0.15372091E+01   0.40474605E-03   0.66646644E+00   0.44436135E+00
  54.2857   0.73332763E-02  -0.11058588E+03   0.15108844E+01   0.40677457E-03   0.66645607E+00   0.44416200E+00
  55.3333   0.74180302E-02  -0.10901599E+03   0.14924965E+01   0.40817918E-03   0.66644426E+00   0.44444481E+00
  56.3810   0.75046810E-02  -0.10746452E+03   0.14644258E+01   0.40986593E-03   0.66643351E+00   0.44433257E+00
  57.4286   0.75868101E-02  -0.10594877E+03   0.14363236E+01   0.41138209E-03   0.66642257E+00   0.44464328E+00
  58.4762   0.76712512E-02  -0.10445574E+03   0.14113006E+01   0.41369008E-03   0.66641083E+00   0.44410079E+00
  59.5238   0.77506802E-02  -0.10299855E+03   0.13756074E+01   0.41501670E-03   0.66640092E+00   0.44369945E+00
  60.5714   0.78333939E-02  -0.10156881E+03   0.13501324E+01   0.41578484E-03   0.66638892E+00   0.44424272E+00
  61.6190   0.79153102E-02  -0.10016667E+03   0.13179488E+01   0.41690627E-03   0.66637819E+00   0.44460068E+00
  62.6667   0.79892047E-02  -0.98805461E+02   0.12902208E+01   0.41777652E-03   0.66636645E+00   0.44475333E+00
  63.7143   0.80671776E-02  -0.97470650E+02   0.12578844E+01   0.41885088E-03   0.66635578E+00   0.44457079E+00
  64.7619   0.81489701E-02  -0.96170418E+02   0.12276078E+01   0.42018417E-03   0.66634466E+00   0.44462532E+00
  65.8095   0.82130622E-02  -0.94899997E+02   0.11991365E+01   0.42085452E-03   0.66633312E+00   0.44430436E+00
  66.8571   0.82898869E-02  -0.93658155E+02   0.11707085E+01   0.42194797E-03   0.66632160E+00   0.44445840E+00
  67.9048   0.83616525E-02  -0.92452829E+02   0.11399908E+01   0.42276949E-03   0.66631099E+00   0.44389085E+00
  68.9524   0.84315643E-02  -0.91274741E+02   0.11120242E+01   0.42326242E-03   0.66629960E+00   0.44427393E+00
  70.0000   0.85028916E-02  -0.90119096E+02   0.10838411E+01   0.42346030E-03   0.66628845E+00   0.44478080E+00
